m/z	intensity
799.884331	166.902
799.901141	162.196
799.917951	161.412
799.934762	164.471
799.951572	168.471
799.968383	157.49
799.985194	148
800.002005	154.588
800.018816	175.686
800.035628	172.392
800.05244	161.725
800.069252	150.667
800.086064	144.706
800.102876	153.961
800.119688	170.667
800.136501	179.137
800.153314	181.02
800.170126	192.235
800.18694	212.314
800.203753	227.451
800.220566	257.725
800.23738	304.157
800.254194	347.529
800.271008	394.824
800.287822	474.824
800.304636	553.333
800.321451	605.098
800.338265	654.98
800.35508	700.628
800.371895	728.157
800.388711	756.471
800.405526	758.039
800.422342	755.608
800.439157	743.294
800.455973	752.078
800.472789	786.353
800.489606	846.745
800.506422	939.451
800.523239	1075.37
800.540056	1188.94
800.556873	1266.12
800.57369	1279.37
800.590507	1226.9
800.607325	1097.73
800.624142	928.941
800.64096	741.177
800.657778	586.431
800.674597	491.137
800.691415	437.725
800.708233	379.608
800.725052	337.098
800.741871	298.118
800.75869	274.667
800.77551	253.412
800.792329	248
800.809149	236
800.825969	220.627
800.842789	207.137
800.859609	198.667
800.876429	180.471
800.89325	160.157
800.91007	160.157
800.926891	171.765
800.943712	174.824
800.960533	167.686
800.977355	158.353
800.994176	154.353
801.010998	148.235
801.02782	148.471
801.044642	151.059
801.061465	153.333
801.078287	156.157
801.09511	162.039
801.111932	157.49
801.128755	162.745
801.145579	179.137
801.162402	196.549
801.179226	200.784
801.196049	209.412
801.212873	231.451
801.229697	242.745
801.246521	251.922
801.263346	305.804
801.28017	387.765
801.296995	466.039
801.31382	523.686
801.330645	574.039
801.347471	616.941
801.364296	628.941
801.381122	637.726
801.397947	649.647
801.414773	657.569
801.4316	685.177
801.448426	732.157
801.465253	784.235
801.482079	818.902
801.498906	863.843
801.515733	943.922
801.53256	1068.47
801.549388	1179.14
801.566215	1229.02
801.583043	1193.8
801.599871	1065.65
801.616699	879.137
801.633528	710.275
801.650356	584
801.667185	473.412
801.684014	397.569
801.700843	360.549
801.717672	347.137
801.734501	329.255
801.751331	302.275
801.76816	278.902
801.78499	245.49
801.80182	221.255
801.818651	202.98
801.835481	187.608
801.852312	179.059
801.869142	180
801.885973	181.255
801.902804	180.078
801.919636	169.725
801.936467	163.843
801.953299	161.882
801.970131	169.882
801.986963	165.569
802.003795	155.216
802.020627	142.745
802.03746	148.235
802.054292	157.961
802.071125	163.059
802.087958	157.804
802.104792	147.922
802.121625	150.196
802.138459	168.706
802.155292	177.804
802.172126	193.098
802.188961	215.294
802.205795	238.039
802.222629	255.765
802.239464	283.059
802.256299	321.02
802.273134	372.706
802.289969	421.569
802.306804	465.725
802.32364	505.02
802.340476	555.059
802.357312	621.961
802.374148	682.98
802.390984	689.177
802.40782	685.412
802.424657	704.314
802.441494	737.647
802.458331	760.235
802.475168	789.098
802.492005	848.471
802.508843	921.569
802.52568	964.549
802.542518	995.294
802.559356	1025.25
802.576194	984.784
802.593033	873.02
802.609871	754.588
802.62671	661.02
802.643549	582.51
802.660388	510.588
802.677227	472.471
802.694067	446.51
802.710906	424.078
802.727746	383.373
802.744586	343.059
802.761426	298.196
802.778266	264.078
802.795107	242.51
802.811947	223.922
802.828788	193.569
802.845629	182.118
802.86247	180.706
802.879312	170.902
802.896153	154.98
802.912995	152.392
802.929837	157.569
802.946679	156.549
802.963521	144.157
802.980364	130.431
802.997206	128.549
803.014049	137.02
803.030892	136.627
803.047735	136.706
803.064579	136.863
803.081422	144.314
803.098266	149.02
803.11511	163.451
803.131954	172
803.148798	177.647
803.165642	180.235
803.182487	199.765
803.199331	229.255
803.216176	264.941
803.233021	297.176
803.249867	330.196
803.266712	364.863
803.283558	412.235
803.300404	463.216
803.31725	514.196
803.334096	553.177
803.350942	586.353
803.367788	621.02
803.384635	653.412
803.401482	677.804
803.418329	697.333
803.435176	717.177
803.452024	715.843
803.468871	708.628
803.485719	737.02
803.502567	799.059
803.519415	879.529
803.536263	927.608
803.553112	937.02
803.56996	891.451
803.586809	783.137
803.603658	662.667
803.620507	573.961
803.637356	505.333
803.654206	457.804
803.671056	430.196
803.687905	400.784
803.704755	363.765
803.721606	342.51
803.738456	308.627
803.755307	271.922
803.772157	242.902
803.789008	240.157
803.805859	234.431
803.822711	217.725
803.839562	187.765
803.856414	174.118
803.873265	169.804
803.890117	160.157
803.90697	158.745
803.923822	159.922
803.940674	158.98
803.957527	160.235
803.97438	166.824
803.991233	173.647
804.008086	170.353
804.02494	168.314
804.041793	161.647
804.058647	157.882
804.075501	158.275
804.092355	150.902
804.109209	140.078
804.126064	153.02
804.142918	176.235
804.159773	196.941
804.176628	202.431
804.193483	202.51
804.210338	216.157
804.227194	252.863
804.24405	289.02
804.260905	319.059
804.277761	347.529
804.294618	393.412
804.311474	447.451
804.328331	503.059
804.345187	532.706
804.362044	576.863
804.378901	634.353
804.395759	701.961
804.412616	761.961
804.429474	801.961
804.446331	810.98
804.463189	818.745
804.480048	829.255
804.496906	868.471
804.513764	927.529
804.530623	999.686
804.547482	1034.27
804.564341	1018.12
804.5812	946.118
804.59806	843.294
804.614919	691.686
804.631779	545.882
804.648639	444.627
804.665499	406.667
804.682359	396.235
804.69922	383.216
804.71608	355.373
804.732941	335.216
804.749802	300.235
804.766663	268.078
804.783525	234.98
804.800386	221.882
804.817248	210.51
804.83411	205.176
804.850972	195.294
804.867834	194.667
804.884696	180
804.901559	163.843
804.918422	159.529
804.935285	172.314
804.952148	178.039
804.969011	165.882
804.985874	163.216
805.002738	160.627
805.019602	169.961
805.036466	183.608
805.05333	189.569
805.070194	186.196
805.087059	176.549
805.103923	158.902
805.120788	154.275
805.137653	162.196
805.154519	166.902
805.171384	192
805.18825	223.529
805.205115	248.157
805.221981	263.059
805.238847	298.902
805.255714	324
805.27258	361.255
805.289447	409.176
805.306314	466.588
805.32318	503.137
805.340048	544.157
805.356915	593.333
805.373783	643.922
805.39065	677.961
805.407518	717.255
805.424386	746.824
805.441254	759.059
805.458123	791.922
805.474991	848.078
805.49186	887.765
805.508729	918.824
805.525598	972.392
805.542467	1028
805.559337	1015.69
805.576206	941.412
805.593076	814.98
805.609946	680.549
805.626816	577.412
805.643687	502.588
805.660557	438.667
805.677428	394.667
805.694299	367.843
805.71117	354.667
805.728041	328.784
805.744913	292.863
805.761784	269.882
805.778656	261.255
805.795528	254.196
805.8124	240.941
805.829272	221.098
805.846145	203.765
805.863017	200
805.87989	199.843
805.896763	199.294
805.913636	193.804
805.93051	194.667
805.947383	194.196
805.964257	192.706
805.981131	192.157
805.998005	202.667
806.014879	237.49
806.031753	276.235
806.048628	290.196
806.065503	284.235
806.082378	275.686
806.099253	256
806.116128	247.059
806.133004	243.294
806.149879	239.922
806.166755	240.392
806.183631	263.922
806.200507	302.824
806.217384	336.863
806.23426	377.804
806.251137	420.392
806.268014	457.255
806.284891	510.353
806.301768	555.922
806.318645	583.451
806.335523	612.235
806.352401	646.98
806.369279	691.294
806.386157	742.745
806.403035	797.177
806.419913	854.667
806.436792	883.137
806.453671	872.628
806.47055	864.628
806.487429	929.882
806.504308	1061.41
806.521188	1167.14
806.538068	1199.53
806.554948	1170.04
806.571828	1115.92
806.588708	1051.84
806.605588	926.824
806.622469	756.863
806.63935	605.255
806.656231	533.098
806.673112	494.745
806.689993	461.882
806.706874	433.333
806.723756	438.902
806.740638	445.725
806.75752	425.176
806.774402	388.392
806.791284	362.745
806.808167	327.373
806.82505	284.314
806.841933	268.392
806.858816	268.392
806.875699	265.647
806.892582	259.451
806.909466	237.961
806.92635	218.353
806.943234	205.176
806.960118	214.98
806.977002	209.412
806.993886	203.843
807.010771	202.588
807.027656	239.216
807.044541	278.039
807.061426	282.98
807.078311	264.784
807.095197	252.235
807.112083	243.765
807.128969	234.588
807.145855	236.471
807.162741	243.451
807.179627	260.941
807.196514	286.98
807.213401	314.118
807.230288	337.804
807.247175	370.51
807.264062	414.588
807.28095	478.51
807.297837	560.941
807.314725	612.314
807.331613	637.255
807.348501	661.961
807.36539	711.529
807.382278	758.196
807.399167	808.314
807.416056	842.51
807.432945	873.098
807.449834	907.137
807.466723	914.118
807.483613	921.961
807.500503	986.902
807.517393	1081.41
807.534283	1142.35
807.551173	1120.31
807.568064	1066.43
807.584954	988
807.601845	886.275
807.618736	761.098
807.635627	657.177
807.652519	570.353
807.66941	517.726
807.686302	489.176
807.703194	469.255
807.720086	435.294
807.736978	409.725
807.753871	365.412
807.770763	319.451
807.787656	292.706
807.804549	285.725
807.821442	280
807.838335	271.137
807.855229	257.49
807.872123	248.784
807.889016	240.706
807.90591	239.686
807.922805	230.98
807.939699	223.922
807.956594	223.216
807.973488	229.176
807.990383	225.804
808.007278	198.667
808.024173	187.216
808.041069	202.196
808.057964	213.647
808.07486	210.902
808.091756	201.098
808.108652	203.922
808.125549	206.275
808.142445	206.431
808.159342	210.98
808.176239	221.412
808.193136	233.647
808.210033	263.373
808.22693	299.765
808.243828	337.333
808.260725	377.412
808.277623	427.843
808.294521	442.51
808.31142	440.078
808.328318	474.824
808.345217	542.51
808.362116	622.902
808.379014	697.49
808.395914	768.392
808.412813	816.863
808.429712	826.824
808.446612	814.824
808.463512	808.235
808.480412	821.882
808.497312	846.588
808.514213	887.608
808.531113	920.157
808.548014	939.373
808.564915	945.569
808.581816	907.608
808.598717	806.118
808.615618	682.353
808.63252	583.451
808.649422	513.726
808.666324	457.961
808.683226	416.706
808.700128	390.588
808.717031	376.314
808.733933	349.412
808.750836	320.392
808.767739	313.804
808.784643	316.627
808.801546	296.471
808.818449	263.765
808.835353	229.176
808.852257	217.098
808.869161	200.471
808.886065	194.196
808.90297	192
808.919874	193.647
808.936779	186.51
808.953684	181.882
808.970589	176.078
808.987495	179.843
809.0044	177.176
809.021306	176.627
809.038212	183.294
809.055118	189.569
809.072024	187.451
809.08893	185.49
809.105837	181.49
809.122744	182.196
809.139651	190.98
809.156558	209.412
809.173465	222.745
809.190372	245.255
809.20728	258.353
809.224188	265.961
809.241096	289.49
809.258004	340.863
809.274912	399.608
809.291821	460.471
809.308729	499.608
809.325638	530.588
809.342547	560.706
809.359456	598.745
809.376366	642.118
809.393275	692.706
809.410185	735.451
809.427095	744.784
809.444005	732.392
809.460915	725.647
809.477826	732.392
809.494736	761.49
809.511647	837.02
809.528558	960.392
809.545469	1010.51
809.562381	977.49
809.579292	946.667
809.596204	920.549
809.613116	817.647
809.630028	694.745
809.64694	578.196
809.663852	475.137
809.680765	396.314
809.697678	358.118
809.714591	339.843
809.731504	327.451
809.748417	306.745
809.76533	301.882
809.782244	291.294
809.799158	273.098
809.816072	252.157
809.832986	232
809.8499	207.451
809.866815	195.765
809.883729	188
809.900644	179.451
809.917559	171.529
809.934474	174.118
809.95139	170.196
809.968305	164.314
809.985221	162.353
810.002137	166.745
810.019053	161.02
810.035969	158.902
810.052886	151.843
810.069803	152.471
810.086719	154.98
810.103636	163.373
810.120553	172.392
810.137471	176.314
810.154388	181.49
810.171306	192.784
810.188224	215.294
810.205142	242.275
810.22206	254.118
810.238979	271.059
810.255897	313.725
810.272816	359.137
810.289735	380.235
810.306654	400.314
810.323573	436.314
810.340493	490.745
810.357412	544.863
810.374332	606.824
810.391252	646.51
810.408172	644.549
810.425092	632
810.442013	680.628
810.458934	737.255
810.475855	751.686
810.492776	752.784
810.509697	776.863
810.526618	810.353
810.54354	872.392
810.560462	905.961
810.577383	859.373
810.594306	760.078
810.611228	680
810.62815	596.549
810.645073	526.196
810.661996	461.647
810.678919	408.706
810.695842	360.941
810.712765	327.686
810.729689	306.039
810.746612	299.922
810.763536	278.98
810.78046	256.471
810.797385	236.627
810.814309	235.529
810.831234	227.765
810.848158	213.176
810.865083	193.49
810.882008	190.51
810.898934	195.059
810.915859	188.863
810.932785	169.333
810.94971	169.255
810.966636	177.176
810.983563	192.157
811.000489	182.196
811.017415	171.608
811.034342	173.49
811.051269	187.451
811.068196	197.961
811.085123	199.059
811.102051	198.667
811.118978	202.431
811.135906	201.49
811.152834	203.137
811.169762	208.235
811.18669	231.294
811.203619	249.333
811.220547	260.078
811.237476	285.647
811.254405	331.294
811.271334	381.176
811.288264	451.451
811.305193	531.686
811.322123	591.843
811.339053	632.549
811.355983	681.255
811.372913	723.373
811.389844	746.745
811.406774	768
811.423705	792.863
811.440636	779.216
811.457567	754.902
811.474498	761.569
811.49143	828.314
811.508361	919.451
811.525293	1004.47
811.542225	1067.69
811.559157	1113.96
811.57609	1089.49
811.593022	1015.76
811.609955	882.902
811.626888	728.863
811.643821	587.922
811.660754	476.706
811.677687	401.333
811.694621	360.392
811.711555	330.98
811.728489	318.275
811.745423	296
811.762357	272.471
811.779292	230.588
811.796226	207.765
811.813161	207.608
811.830096	202.98
811.847031	178.431
811.863967	169.647
811.880902	176.392
811.897838	186.275
811.914774	177.725
811.93171	176.549
811.948646	173.02
811.965582	172.549
811.982519	165.255
811.999456	178.667
812.016393	177.961
812.03333	178.196
812.050267	173.02
812.067205	186.039
812.084142	181.02
812.10108	177.647
812.118018	178.51
812.134956	185.49
812.151895	182.431
812.168833	192.235
812.185772	213.333
812.202711	230.118
812.21965	248.078
812.236589	276.784
812.253528	310.667
812.270468	361.098
812.287408	397.725
812.304348	448.235
812.321288	488.549
812.338228	538.431
812.355169	580.157
812.372109	613.569
812.38905	650.039
812.405991	701.961
812.422932	725.255
812.439874	734.353
812.456815	749.961
812.473757	785.177
812.490699	788.471
812.507641	816.235
812.524583	878.667
812.541525	941.882
812.558468	969.726
812.575411	971.686
812.592354	928.471
812.609297	862.51
812.62624	782.824
812.643184	680.392
812.660127	574.588
812.677071	492.078
812.694015	423.216
812.710959	359.686
812.727904	317.882
812.744848	303.765
812.761793	293.176
812.778738	276.078
812.795683	246.902
812.812628	231.059
812.829574	209.882
812.846519	210.431
812.863465	200.157
812.880411	181.176
812.897357	162.824
812.914303	154.118
812.93125	147.922
812.948196	143.529
812.965143	145.412
812.98209	149.49
812.999037	153.569
813.015985	157.098
813.032932	163.686
813.04988	168.863
813.066828	159.137
813.083776	152.941
813.100724	158.824
813.117673	170.588
813.134621	184.863
813.15157	183.137
813.168519	190.98
813.185468	207.294
813.202417	238.902
813.219367	250.824
813.236317	254.745
813.253266	290.196
813.270216	356.157
813.287167	410.118
813.304117	439.686
813.321068	493.098
813.338018	556.784
813.354969	606.588
813.37192	636.314
813.388871	674.431
813.405823	711.373
813.422775	745.804
813.439726	749.255
813.456678	752
813.47363	764.863
813.490583	777.961
813.507535	794.588
813.524488	884.941
813.541441	1009.96
813.558394	1100.55
813.575347	1127.14
813.5923	1100.31
813.609254	996.235
813.626208	845.02
813.643161	685.882
813.660115	576.392
813.67707	488.078
813.694024	405.49
813.710979	346.353
813.727934	320
813.744889	299.059
813.761844	276.784
813.778799	259.451
813.795754	241.176
813.81271	207.765
813.829666	182.353
813.846622	170.431
813.863578	169.804
813.880535	152.627
813.897491	160.392
813.914448	179.765
813.931405	189.725
813.948362	169.02
813.965319	156.235
813.982276	167.373
813.999234	178.51
814.016192	162.588
814.03315	159.922
814.050108	151.373
814.067066	148.392
814.084025	154.824
814.100983	167.922
814.117942	181.412
814.134901	181.412
814.151861	176.706
814.16882	188.235
814.185779	193.804
814.202739	205.804
814.219699	224.392
814.236659	252.549
814.253619	293.176
814.27058	342.745
814.28754	371.216
814.304501	399.059
814.321462	447.686
814.338423	506.431
814.355385	546.902
814.372346	590.196
814.389308	633.961
814.40627	667.765
814.423232	676.235
814.440194	685.412
814.457156	716.784
814.474119	760.471
814.491082	788.314
814.508044	809.333
814.525008	858.039
814.541971	943.451
814.558934	1026.04
814.575898	1055.14
814.592862	985.882
814.609826	859.843
814.62679	745.961
814.643754	641.569
814.660719	545.569
814.677683	501.176
814.694648	474.275
814.711613	414.667
814.728578	344.235
814.745544	310.667
814.762509	293.02
814.779475	280.863
814.796441	264.941
814.813407	246.196
814.830373	221.647
814.84734	209.49
814.864306	185.333
814.881273	173.725
814.89824	171.451
814.915207	174.98
814.932175	171.765
814.949142	173.49
814.96611	169.49
814.983078	174.431
815.000046	184
815.017014	178.667
815.033982	161.569
815.050951	162.431
815.06792	162.824
815.084888	169.882
815.101858	165.569
815.118827	171.765
815.135796	167.529
815.152766	172.392
815.169736	184.157
815.186706	215.294
815.203676	232.392
815.220646	261.098
815.237617	298.431
815.254587	335.373
815.271558	363.216
815.288529	390.196
815.3055	433.412
815.322472	500.941
815.339443	576.549
815.356415	649.177
815.373387	704.078
815.390359	757.098
815.407331	789.412
815.424304	797.02
815.441276	774.039
815.458249	760.941
815.475222	758.745
815.492195	770.745
815.509169	780.157
815.526142	844.863
815.543116	943.216
815.56009	1024.55
815.577064	1045.73
815.594038	1001.25
815.611012	874.353
815.627987	754.51
815.644962	642.118
815.661937	538.431
815.678912	460.157
815.695887	418.039
815.712862	394.667
815.729838	360.627
815.746814	330.118
815.76379	299.922
815.780766	258.431
815.797742	233.412
815.814719	226.667
815.831696	225.569
815.848672	221.098
815.865649	227.373
815.882627	220.392
815.899604	206.275
815.916582	181.725
815.933559	159.529
815.950537	151.137
815.967515	158.431
815.984494	160.784
816.001472	161.255
816.018451	162.431
816.03543	173.255
816.052409	171.451
816.069388	168.784
816.086367	173.412
816.103347	177.725
816.120326	169.333
816.137306	171.922
816.154286	175.765
816.171266	178.431
816.188247	189.882
816.205227	219.686
816.222208	245.49
816.239189	264.549
816.25617	288.314
816.273151	316.627
816.290133	347.216
816.307115	407.608
816.324096	482.745
816.341078	564.784
816.358061	651.529
816.375043	748.157
816.392025	804.784
816.409008	815.137
816.425991	814.431
816.442974	816.157
816.459957	811.529
816.476941	852.549
816.493924	932.706
816.510908	1002.43
816.527892	1104.78
816.544876	1235.69
816.56186	1318.98
816.578845	1316.94
816.595829	1234.75
816.612814	1089.41
816.629799	907.765
816.646784	742.667
816.66377	618.196
816.680755	535.373
816.697741	472.471
816.714727	438.902
816.731713	408.549
816.748699	374.588
816.765685	340.078
816.782672	325.804
816.799659	310.51
816.816646	281.333
816.833633	249.647
816.85062	230.431
816.867608	218.51
816.884595	214.588
816.901583	198.588
816.918571	188.784
816.935559	183.765
816.952548	197.255
816.969536	199.608
816.986525	188.157
817.003514	180.549
